hbar Omega (meV)	Re[K(hbar Omega)] (ps-1)
0.41	0.00411
0.45	0.00795
0.48	0.0118
0.51	0.0156
0.54	0.0194
0.61	0.0271
0.67	0.0347
0.73	0.0424
0.81	0.0538
0.88	0.0691
0.93	0.0768
0.98	0.0844
1.06	0.103
1.11	0.115
1.18	0.126
1.22	0.134
1.3	0.145
1.36	0.153
1.39	0.157
1.45	0.165
1.5	0.172
1.53	0.172
1.58	0.176
1.6	0.176
1.65	0.18
1.66	0.18
1.72	0.184
1.76	0.184
1.8	0.184
1.83	0.184
1.86	0.184
1.9	0.18
1.92	0.18
1.96	0.176
2	0.176
2.04	0.173
2.11	0.165
2.16	0.161
2.19	0.158
2.22	0.154
2.26	0.15
2.35	0.139
2.43	0.127
2.48	0.12
2.51	0.116
2.56	0.108
2.62	0.101
2.71	0.0857
2.78	0.0782
2.86	0.0668
2.89	0.063
2.94	0.0593
3	0.0517
3.04	0.0479
3.08	0.0442
3.17	0.0366
3.19	0.0366
3.26	0.0329
3.29	0.0291
3.38	0.0254
3.47	0.0178

