# Pulse Area (PI rad), Fidelity
1.000000000000000056e-01 3.098714652199999892e-02
2.000000000000000111e-01 1.190573889510000011e-01
3.000000000000000444e-01 2.505481892170000058e-01
4.000000000000000222e-01 4.057473532829999896e-01
5.000000000000000000e-01 5.625501278210000011e-01
5.999999999999999778e-01 7.007408862099999691e-01
7.000000000000000666e-01 8.053513203500000106e-01
8.000000000000000444e-01 8.685463003259999981e-01
9.000000000000000222e-01 8.900384430179999473e-01
1.000000000000000000e+00 8.768066307270000470e-01
1.100000000000000089e+00 8.397661579659999598e-01
1.200000000000000178e+00 7.909407686310000463e-01
1.300000000000000266e+00 7.421992646120000314e-01
1.400000000000000133e+00 7.015392143240000156e-01
1.500000000000000222e+00 6.730628728649999948e-01
1.600000000000000089e+00 6.570007780569999678e-01
1.700000000000000178e+00 6.504382138800000046e-01
1.800000000000000266e+00 6.487817182080000133e-01
1.900000000000000133e+00 6.473703189559999460e-01
2.000000000000000000e+00 6.425765872509999754e-01
2.100000000000000089e+00 6.325244549659999604e-01
2.200000000000000178e+00 6.172289978310000480e-01
2.300000000000000266e+00 5.982608028300000491e-01
2.400000000000000355e+00 5.780675782349999903e-01
2.500000000000000444e+00 5.592056772079999627e-01
2.600000000000000089e+00 5.437072365109999472e-01
2.700000000000000178e+00 5.326701658160000186e-01
2.800000000000000266e+00 5.261309425739999490e-01
2.900000000000000355e+00 5.232335591360000038e-01
3.000000000000000444e+00 5.225677114500000275e-01
3.100000000000000089e+00 5.225668339360000081e-01
3.200000000000000178e+00 5.218878285060000177e-01
3.300000000000000266e+00 5.196863053970000035e-01
3.400000000000000355e+00 5.157220190350000344e-01
3.500000000000000444e+00 5.103010150110000032e-01
3.600000000000000089e+00 5.041218214260000385e-01
3.700000000000000178e+00 4.980486609600000003e-01
3.800000000000000266e+00 4.928784246030000205e-01
3.900000000000000355e+00 4.891538302949999806e-01
4.000000000000000000e+00 4.870737524239999727e-01
4.099999999999999645e+00 4.864828073390000118e-01
4.200000000000000178e+00 4.869449554870000085e-01
4.299999999999999822e+00 4.878683365820000173e-01
4.399999999999999467e+00 4.886577833379999736e-01
4.500000000000000000e+00 4.888448766690000058e-01
4.599999999999999645e+00 4.881745161139999789e-01
4.700000000000000178e+00 4.866382374750000128e-01
4.799999999999999822e+00 4.844511603589999882e-01
4.900000000000000355e+00 4.819788744010000126e-01
5.000000000000000000e+00 4.796372620759999927e-01
