# Pulse Area (PI rad), Fidelity
1.000000000000000056e-01 2.990055480299999915e-02
2.000000000000000111e-01 1.154712912310000006e-01
3.000000000000000444e-01 2.450454432799999971e-01
4.000000000000000222e-01 4.014472065479999796e-01
5.000000000000000000e-01 5.649084796219999705e-01
5.999999999999999778e-01 7.163663302589999837e-01
7.000000000000000666e-01 8.404548100650000020e-01
8.000000000000000444e-01 9.276529335450000024e-01
9.000000000000000222e-01 9.752567153019999768e-01
1.000000000000000000e+00 9.871679109740000291e-01
1.100000000000000089e+00 9.722932487730000517e-01
1.200000000000000178e+00 9.422532770229999910e-01
1.300000000000000266e+00 9.090726805090000306e-01
1.400000000000000133e+00 8.825947795420000519e-01
1.500000000000000222e+00 8.690085689300000027e-01
1.600000000000000089e+00 8.701661147029999821e-01
1.700000000000000178e+00 8.838522571660000215e-01
1.800000000000000266e+00 9.049170440749999544e-01
1.900000000000000133e+00 9.269363307319999912e-01
2.000000000000000000e+00 9.439076392190000053e-01
2.100000000000000089e+00 9.516673675789999454e-01
2.200000000000000178e+00 9.487180009540000514e-01
2.300000000000000266e+00 9.363496483409999849e-01
2.400000000000000355e+00 9.180801009919999922e-01
2.500000000000000444e+00 8.985872007420000473e-01
2.600000000000000089e+00 8.824783559229999463e-01
2.700000000000000178e+00 8.731696866229999854e-01
2.800000000000000266e+00 8.721369576619999453e-01
2.900000000000000355e+00 8.786926508210000097e-01
3.000000000000000444e+00 8.903142799600000101e-01
3.100000000000000089e+00 9.033828463380000340e-01
3.200000000000000178e+00 9.141457606230000144e-01
3.300000000000000266e+00 9.196574642789999698e-01
3.400000000000000355e+00 9.184613234659999570e-01
3.500000000000000444e+00 9.108578257549999613e-01
3.600000000000000089e+00 8.987419658099999875e-01
3.700000000000000178e+00 8.850568688069999634e-01
3.800000000000000266e+00 8.730168989330000517e-01
3.900000000000000355e+00 8.652922709820000113e-01
4.000000000000000000e+00 8.633922158479999664e-01
4.099999999999999645e+00 8.673439023119999813e-01
4.200000000000000178e+00 8.757488592550000117e-01
4.299999999999999822e+00 8.861758266129999839e-01
4.399999999999999467e+00 8.958176316560000352e-01
4.500000000000000000e+00 9.021889420209999733e-01
4.599999999999999645e+00 9.037126339359999871e-01
4.700000000000000178e+00 9.000755644660000110e-01
4.799999999999999822e+00 8.922679770450000492e-01
4.900000000000000355e+00 8.822923349079999644e-01
5.000000000000000000e+00 8.726231604940000164e-01
