# Pulse Area (PI rad), Fidelity
1.000000000000000056e-01 3.219306824300000036e-02
2.000000000000000111e-01 1.230035345360000060e-01
3.000000000000000444e-01 2.565163763419999743e-01
4.000000000000000222e-01 4.103052725040000070e-01
5.000000000000000000e-01 5.600468961460000061e-01
5.999999999999999778e-01 6.849128046500000400e-01
7.000000000000000666e-01 7.711851284880000268e-01
8.000000000000000444e-01 8.136409143670000343e-01
9.000000000000000222e-01 8.151664276740000492e-01
1.000000000000000000e+00 7.859823779860000137e-01
1.100000000000000089e+00 7.387126905649999964e-01
1.200000000000000178e+00 6.853878333820000446e-01
1.300000000000000266e+00 6.367901031339999740e-01
1.400000000000000133e+00 5.987283903969999876e-01
1.500000000000000222e+00 5.731448744170000165e-01
1.600000000000000089e+00 5.587797902279999507e-01
1.700000000000000178e+00 5.522789679380000205e-01
1.800000000000000266e+00 5.496762836149999831e-01
1.900000000000000133e+00 5.476251984869999756e-01
2.000000000000000000e+00 5.439623429430000545e-01
2.100000000000000089e+00 5.378935360969999691e-01
2.200000000000000178e+00 5.297729627939999908e-01
2.300000000000000266e+00 5.206637291569999881e-01
2.400000000000000355e+00 5.118384508690000390e-01
2.500000000000000444e+00 5.043744364159999938e-01
2.600000000000000089e+00 4.989195690920000259e-01
2.700000000000000178e+00 4.956238055669999754e-01
2.800000000000000266e+00 4.942092851309999868e-01
2.900000000000000355e+00 4.941305006749999729e-01
3.000000000000000444e+00 4.947522763960000014e-01
3.100000000000000089e+00 4.955004378199999726e-01
3.200000000000000178e+00 4.959633096859999979e-01
3.300000000000000266e+00 4.959344862530000175e-01
3.400000000000000355e+00 4.953989667450000023e-01
3.500000000000000444e+00 4.944806726200000058e-01
3.600000000000000089e+00 4.933783054509999766e-01
3.700000000000000178e+00 4.923009077700000180e-01
3.800000000000000266e+00 4.914170776769999915e-01
3.900000000000000355e+00 4.908255693940000164e-01
4.000000000000000000e+00 4.905485999010000264e-01
4.099999999999999645e+00 4.905418401439999854e-01
4.200000000000000178e+00 4.907167279629999768e-01
4.299999999999999822e+00 4.909667435819999870e-01
4.399999999999999467e+00 4.911923461280000014e-01
4.500000000000000000e+00 4.913200876550000151e-01
4.599999999999999645e+00 4.913124321269999872e-01
4.700000000000000178e+00 4.911687700480000252e-01
4.799999999999999822e+00 4.909194787489999934e-01
4.900000000000000355e+00 4.906143827639999899e-01
5.000000000000000000e+00 4.903092250180000056e-01
